r,l,log10(n_eN_A),m,nu B8,nu Be7,nu F17,nu hep,nu N13,nu O15,nu pep,nu pp,P,rho,T,X_7Be,X_C12,X_H,X_He3,X_He4,X_N14,X_N16
0.00161,1.00E-05,2.010848423,0.00059262,3.51E-05,1.42E-05,3.18E-05,1.22E-06,2.10E-05,2.88E-05,4.53E-06,2.92E-06,2.34E+17,150.2718265,15512900.4,1.58E-11,7.79E-06,0.364560911,8.89E-06,0.620191693,0.003730331,0.006061274
0.002592452,2.17E-05,2.011038522,0.000528054,8.13E-05,3.28E-05,7.44E-05,2.87E-06,4.85E-05,6.74E-05,1.04E-05,6.66E-06,2.34E+17,150.2319744,15508821.44,1.58E-11,7.80E-06,0.3646922,8.90E-06,0.620149277,0.003732631,0.006065092
0.003574905,3.99E-05,2.011081147,0.000465158,0.000148009,5.96E-05,0.000135462,5.22E-06,8.82E-05,0.000122699,1.90E-05,1.21E-05,2.34E+17,150.1758388,15504206.97,1.58E-11,7.80E-06,0.364874131,8.92E-06,0.620018515,0.003740583,0.006068448
0.004557357,8.34E-05,2.010995757,0.000404705,0.00023367,9.44E-05,0.000213575,8.28E-06,0.000139505,0.000193552,3.02E-05,1.93E-05,2.34E+17,150.1026628,15499057.81,1.57E-11,7.80E-06,0.365107414,8.94E-06,0.619807238,0.003739883,0.006071423
0.00553981,0.000150357,2.01080572,0.000347455,0.000338156,0.000137094,0.000309044,1.21E-05,0.000202182,0.000280115,4.38E-05,2.81E-05,2.33E+17,150.0117628,15493374.94,1.57E-11,7.80E-06,0.365392759,8.96E-06,0.619522392,0.003739924,0.006074096
0.006522262,0.00024974,2.010534022,0.000294152,0.000460998,0.000187548,0.000421758,1.65E-05,0.00027582,0.000382199,5.98E-05,3.85E-05,2.33E+17,149.9025272,15487159.46,1.57E-11,7.79E-06,0.365730876,8.99E-06,0.619170034,0.003740029,0.006076549
0.007504715,0.000377564,2.01019935,0.000245522,0.00060091,0.000245338,0.000550525,2.17E-05,0.000359604,0.000498748,7.84E-05,5.05E-05,2.33E+17,149.7744154,15480412.62,1.56E-11,7.79E-06,0.366122475,9.02E-06,0.618755334,0.003740069,0.006078861
0.008487167,0.000539142,2.009814607,0.00020228,0.000756899,0.000310159,0.000694226,2.76E-05,0.00045295,0.000628839,9.96E-05,6.40E-05,2.33E+17,149.6269564,15473135.8,1.56E-11,7.78E-06,0.366568267,9.06E-06,0.618282575,0.003740071,0.006081113
0.00946962,0.000758965,2.009387737,0.000165123,0.000928392,0.000381902,0.000852059,3.42E-05,0.000555558,0.000771868,0.000123251,7.90E-05,2.33E+17,149.4597475,15465330.54,1.56E-11,7.78E-06,0.367068962,9.10E-06,0.617755151,0.003740053,0.006083385
0.010452072,0.001013488,2.008922849,0.000134733,0.001114917,0.000460527,0.001023351,4.15E-05,0.00066721,0.000927344,0.000149312,9.56E-05,2.32E+17,149.2724525,15456998.49,1.55E-11,7.77E-06,0.36762527,9.14E-06,0.617175569,0.003740026,0.006085759
0.011434525,0.001326452,2.008421336,0.000111779,0.00131575,0.000545926,0.001207317,4.95E-05,0.000787554,0.001094648,0.000177709,0.000113897,2.32E+17,149.0648002,15448141.42,1.54E-11,7.76E-06,0.368237901,9.19E-06,0.61654545,0.003739997,0.006088316
0.012416977,0.001697426,2.007883004,9.69E-05,0.001529755,0.000637854,0.001402945,5.83E-05,0.000915991,0.001272917,0.000208378,0.000133763,2.32E+17,148.8365832,15438761.28,1.54E-11,7.76E-06,0.368907535,9.25E-06,0.615865528,0.003739971,0.006091135
0.013399429,0.002124206,2.007307126,9.08E-05,0.001755556,0.000735987,0.001609112,6.79E-05,0.001051782,0.001461155,0.000241268,0.000155213,2.31E+17,148.5876552,15428860.09,1.53E-11,7.75E-06,0.369634117,9.31E-06,0.615135836,0.003739951,0.006094248
0.014381882,0.002622898,2.006693004,9.40E-05,0.001991755,0.000840008,0.001824736,7.81E-05,0.001194178,0.001658388,0.000276346,0.000178221,2.31E+17,148.3179297,15418440.05,1.53E-11,7.74E-06,0.370416854,9.37E-06,0.61435626,0.003739936,0.006097644
0.015364334,0.003190521,2.006040035,0.00010716,0.002236956,0.000949599,0.002048757,8.90E-05,0.001342428,0.001863652,0.000313595,0.000202764,2.30E+17,148.0273776,15407503.46,1.52E-11,7.73E-06,0.371254921,9.44E-06,0.613526734,0.003739928,0.006101306
0.016346787,0.003830419,2.005347711,0.000130888,0.002489733,0.001064432,0.002280084,0.000100436,0.00149576,0.002075957,0.000352995,0.000228816,2.30E+17,147.716025,15396052.73,1.51E-11,7.72E-06,0.372147491,9.52E-06,0.612647234,0.003739928,0.00610522
0.017329239,0.004549965,2.004615613,0.000165754,0.002748603,0.001184138,0.002517548,0.000113323,0.00165336,0.002294243,0.000394516,0.000256347,2.29E+17,147.3839506,15384090.43,1.50E-11,7.71E-06,0.373093737,9.60E-06,0.611717781,0.003739935,0.006109369
0.018311692,0.00535345,2.003843407,0.000212323,0.003012006,0.001308301,0.002759867,0.000126137,0.001814357,0.002517353,0.000438111,0.000285318,2.29E+17,147.0312837,15371619.21,1.49E-11,7.70E-06,0.374092832,9.68E-06,0.610738444,0.003739948,0.00611374
0.019294144,0.0062442,2.003030841,0.00027115,0.003278314,0.001436448,0.003005644,0.000140244,0.001977827,0.002744034,0.000483709,0.000315683,2.28E+17,146.6582016,15358641.87,1.48E-11,7.69E-06,0.375143952,9.77E-06,0.609709335,0.003739967,0.006118317
0.020276597,0.007225566,2.002177742,0.000342772,0.003545864,0.001568065,0.0032534,0.000154646,0.002142811,0.002972967,0.000531219,0.000347386,2.28E+17,146.2649267,15345161.31,1.47E-11,7.68E-06,0.376246269,9.87E-06,0.608630612,0.003739989,0.006123084
0.021259049,0.008300929,2.00128401,0.000427717,0.003813026,0.001702628,0.003501653,0.000169857,0.002308365,0.003202832,0.000580541,0.000380372,2.27E+17,145.8517244,15331180.55,1.46E-11,7.67E-06,0.377398956,9.97E-06,0.607502478,0.003740014,0.006128026
0.022241502,0.009473612,2.000349615,0.000526495,0.004078272,0.001839627,0.003748985,0.000185881,0.002473591,0.003432372,0.000631578,0.000414589,2.26E+17,145.4189002,15316702.72,1.45E-11,7.65E-06,0.378601188,1.01E-05,0.606325183,0.003740039,0.006133128
0.023223954,0.01074685,1.999374595,0.000639607,0.004340188,0.001978578,0.003994066,0.000202699,0.002637656,0.003660407,0.000684238,0.00044999,2.26E+17,144.966797,15301731.05,1.44E-11,7.64E-06,0.379852138,1.02E-05,0.605099021,0.003740064,0.006138374
0.024206406,0.012123765,1.998359051,0.000767536,0.004597477,0.002119023,0.004235661,0.000220281,0.00279979,0.003885844,0.000738437,0.000486536,2.25E+17,144.4957924,15286268.91,1.43E-11,7.62E-06,0.38115098,1.03E-05,0.603824331,0.003740085,0.006143749
0.025188859,0.01360734,1.997303141,0.000910755,0.004848957,0.002260533,0.004472627,0.000238598,0.002959287,0.004107676,0.000794094,0.000524191,2.24E+17,144.0062962,15270319.74,1.42E-11,7.61E-06,0.382496887,1.04E-05,0.602501498,0.003740102,0.006149237
0.026171311,0.015200393,1.996207079,0.001069723,0.005093554,0.002402702,0.004703919,0.000257631,0.003115502,0.004324978,0.000851137,0.000562924,2.24E+17,143.4987474,15253887.11,1.41E-11,7.59E-06,0.383889033,1.05E-05,0.601130953,0.003740113,0.006154824
0.027153764,0.016905564,1.995071133,0.001244886,0.005330296,0.002545147,0.004928577,0.000277369,0.003267848,0.004536906,0.000909495,0.000602711,2.23E+17,142.9736113,15236974.67,1.39E-11,7.58E-06,0.385326591,1.07E-05,0.599713171,0.003740117,0.006160492
0.028136216,0.018725324,1.993895616,0.001436678,0.005558299,0.002687505,0.005145727,0.00029781,0.00341579,0.004742688,0.000969102,0.000643527,2.22E+17,142.4313772,15219586.18,1.38E-11,7.56E-06,0.386808736,1.08E-05,0.598248673,0.003740112,0.006166228
0.029118669,0.020662013,1.992680885,0.001645518,0.005776758,0.002829427,0.005354572,0.000318956,0.003558839,0.00494162,0.001029895,0.000685352,2.21E+17,141.8725554,15201725.51,1.37E-11,7.54E-06,0.388334641,1.10E-05,0.596738025,0.003740099,0.006172014
0.030101121,0.022717879,1.991427339,0.001871814,0.00598494,0.002970578,0.005554386,0.000340807,0.003696546,0.005133058,0.001091811,0.000728165,2.21E+17,141.2976746,15183396.6,1.35E-11,7.53E-06,0.389903479,1.11E-05,0.595181839,0.003740077,0.006177836
0.031083574,0.024895073,1.990135411,0.002115963,0.006182169,0.003110627,0.005744506,0.000363367,0.003828498,0.005316409,0.001154785,0.000771947,2.20E+17,140.7072788,15164603.49,1.34E-11,7.51E-06,0.391514424,1.13E-05,0.593580773,0.003740045,0.006183677
0.032066026,0.027195633,1.988805569,0.002378346,0.006367825,0.00324925,0.005924328,0.000386637,0.003954314,0.005491131,0.00121875,0.000816675,2.19E+17,140.1019252,15145350.34,1.33E-11,7.49E-06,0.393166649,1.14E-05,0.591935528,0.003740006,0.006189521
0.033048478,0.029621454,1.987438308,0.002659335,0.006541332,0.003386121,0.0060933,0.000410615,0.004073637,0.005656722,0.001283638,0.000862324,2.18E+17,139.4821814,15125641.35,1.31E-11,7.47E-06,0.394859329,1.16E-05,0.590246852,0.003739961,0.006195353
0.034030931,0.032174267,1.986034148,0.002959289,0.006702159,0.003520917,0.006250922,0.000435301,0.004186137,0.005812719,0.001349371,0.000908865,2.17E+17,138.8486227,15105480.84,1.30E-11,7.45E-06,0.396591637,1.18E-05,0.588515539,0.003739912,0.006201157
0.035013383,0.034855608,1.984593632,0.003278553,0.006849815,0.003653308,0.006396739,0.00046069,0.004291504,0.005958697,0.00141587,0.000956264,2.16E+17,138.2018294,15084873.2,1.28E-11,7.43E-06,0.398362747,1.19E-05,0.586742426,0.003739862,0.006206917
0.035995836,0.037666787,1.983117318,0.003617462,0.006983853,0.003782963,0.006530345,0.000486774,0.004389453,0.006094264,0.001483047,0.001004483,2.15E+17,137.542385,15063822.9,1.26E-11,7.41E-06,0.400171831,1.21E-05,0.584928398,0.003739815,0.006212615
0.036978288,0.040608868,1.98160578,0.003976341,0.007103867,0.003909549,0.006651383,0.000513544,0.004479719,0.006219066,0.001550808,0.001053475,2.14E+17,136.870873,15042334.5,1.25E-11,7.39E-06,0.402018064,1.23E-05,0.583074384,0.003739776,0.006218237
0.037960741,0.04368265,1.980059601,0.004355499,0.007209504,0.00403273,0.006759544,0.000540987,0.004562065,0.006332788,0.001619052,0.001103192,2.13E+17,136.187875,15020412.63,1.23E-11,7.37E-06,0.40390062,1.25E-05,0.581181359,0.003739752,0.006223767
0.038943193,0.046888658,1.978479368,0.004755236,0.007300464,0.004152174,0.006854574,0.000569088,0.004636279,0.006435155,0.001687673,0.001153575,2.12E+17,135.4939687,14998061.99,1.21E-11,7.35E-06,0.405818672,1.27E-05,0.579250341,0.003739748,0.006229186
0.039925646,0.050227146,1.976865674,0.005175842,0.007376512,0.004267552,0.00693628,0.000597829,0.004702183,0.006525939,0.001756557,0.001204563,2.11E+17,134.7897248,14975287.36,1.20E-11,7.33E-06,0.407771393,1.29E-05,0.577282398,0.003739774,0.006234481
0.040908098,0.053698116,1.975219107,0.005617592,0.007437483,0.004378547,0.00700453,0.00062719,0.004759635,0.006604965,0.00182559,0.00125609,2.10E+17,134.0757059,14952093.57,1.18E-11,7.31E-06,0.409757958,1.32E-05,0.575278638,0.003739839,0.006239633
0.041890551,0.057301362,1.973540253,0.006080754,0.007483294,0.004484859,0.007059264,0.00065715,0.004808534,0.006672113,0.001894652,0.001308087,2.09E+17,133.3524638,14928485.55,1.16E-11,7.28E-06,0.411777537,1.34E-05,0.573240218,0.003739953,0.006244628
0.042873003,0.061036517,1.971829687,0.006565581,0.007513953,0.004586209,0.007100499,0.000687686,0.004848826,0.006727331,0.001963628,0.001360484,2.08E+17,132.6205379,14904468.26,1.14E-11,7.26E-06,0.413829267,1.36E-05,0.571168324,0.003740128,0.006249459
0.043855455,0.064903099,1.970087974,0.007072318,0.007529556,0.004682343,0.007128326,0.000718778,0.004880507,0.006770628,0.002032401,0.001413211,2.07E+17,131.8804544,14880046.74,1.13E-11,7.24E-06,0.415912255,1.39E-05,0.569064142,0.00374036,0.006254128
0.044837908,0.068900519,1.968315669,0.007601197,0.007530292,0.004773037,0.007142911,0.000750405,0.004903617,0.00680208,0.002100859,0.001466198,2.06E+17,131.1327259,14855226.09,1.11E-11,7.21E-06,0.418025608,1.41E-05,0.566928841,0.003740614,0.006258637
0.04582036,0.073028086,1.966513316,0.008152442,0.007516433,0.004858089,0.007144489,0.000782544,0.004918243,0.00682182,0.002168892,0.001519375,2.05E+17,130.3778517,14830011.46,1.09E-11,7.19E-06,0.420168432,1.44E-05,0.564763579,0.003740799,0.006262987
0.046802813,0.077285015,1.96468145,0.008726264,0.007488327,0.00493733,0.007133358,0.000815177,0.004924512,0.006830037,0.002236393,0.001572674,2.04E+17,129.6163179,14804408.07,1.07E-11,7.16E-06,0.422339835,1.46E-05,0.562569504,0.003740744,0.006267182
0.047785265,0.08167043,1.962820593,0.009322864,0.007446399,0.005010614,0.007109875,0.000848282,0.004922592,0.006826971,0.002303259,0.001626025,2.03E+17,128.8485968,14778421.16,1.05E-11,7.14E-06,0.424538921,1.49E-05,0.560347746,0.003740182,0.006271224
0.048767718,0.086183366,1.960931261,0.009942433,0.007391139,0.005077824,0.007074447,0.000881839,0.004912683,0.006812913,0.002369389,0.001679362,2.02E+17,128.0751479,14752056.06,1.03E-11,7.11E-06,0.426764799,1.52E-05,0.558099426,0.003738757,0.006275113
0.04975017,0.090822772,1.959013956,0.010585153,0.007323095,0.005138868,0.007027533,0.000915828,0.004895023,0.006788192,0.002434687,0.001732619,2.01E+17,127.2964172,14725318.13,1.01E-11,7.09E-06,0.429016574,1.55E-05,0.555825652,0.003736326,0.006278853
0.050732623,0.095587506,1.957069173,0.011251194,0.007242872,0.005193681,0.006969628,0.000950228,0.004869876,0.006753179,0.002499061,0.00178573,1.99E+17,126.5128375,14698212.75,9.95E-12,7.06E-06,0.431293354,1.58E-05,0.553527517,0.003733442,0.006282445
0.051715075,0.100476339,1.955097395,0.011940716,0.007151118,0.005242223,0.006901267,0.000985016,0.004837533,0.006708278,0.002562423,0.001838631,1.98E+17,125.7248289,14670745.39,9.76E-12,7.03E-06,0.433594244,1.61E-05,0.551206103,0.003731047,0.006285893
0.052697528,0.105487951,1.953099097,0.012653871,0.007048522,0.005284477,0.006823013,0.001020172,0.004798309,0.006653923,0.002624689,0.001891262,1.97E+17,124.9327984,14642921.52,9.57E-12,7.01E-06,0.435918352,1.64E-05,0.54886248,0.003729653,0.006289197
0.05367998,0.110620928,1.951074744,0.0133908,0.006935804,0.00532045,0.006735455,0.00105567,0.004752537,0.006590573,0.002685778,0.001943561,1.96E+17,124.1371402,14614746.68,9.38E-12,6.98E-06,0.438264784,1.67E-05,0.546497703,0.003729235,0.00629236
0.054662432,0.115873758,1.949024791,0.014151634,0.006813709,0.005350171,0.006639199,0.001091486,0.004700567,0.006518708,0.002745615,0.001995469,1.95E+17,123.338236,14586226.42,9.19E-12,6.95E-06,0.440632647,1.71E-05,0.544112815,0.00372943,0.006295385
0.055644885,0.121244828,1.946949684,0.014936495,0.006683001,0.005373691,0.006534866,0.001127591,0.004642762,0.006438826,0.002804128,0.002046929,1.94E+17,122.536455,14557366.33,9.00E-12,6.92E-06,0.443021046,1.74E-05,0.541708848,0.003729856,0.006298273
0.056627337,0.12673242,1.944849859,0.015745497,0.006544456,0.005391079,0.006423087,0.001163956,0.004579497,0.006351436,0.00286125,0.002097886,1.92E+17,121.732154,14528172.05,8.81E-12,6.89E-06,0.44542909,1.78E-05,0.539286818,0.003730254,0.006301026
0.05760979,0.132334708,1.942725743,0.016578742,0.006398855,0.005402423,0.006304496,0.001200551,0.004511152,0.006257056,0.002916918,0.002148285,1.91E+17,120.9256778,14498649.22,8.62E-12,6.86E-06,0.447855883,1.81E-05,0.536847731,0.003730483,0.006303648
0.058592242,0.138049753,1.940577756,0.017436325,0.006246979,0.00540783,0.006179729,0.001237343,0.004438112,0.006156212,0.002971073,0.002198074,1.90E+17,120.1173593,14468803.52,8.43E-12,6.84E-06,0.450300534,1.85E-05,0.534392579,0.003730493,0.00630614
0.059574695,0.143875504,1.938406305,0.018318331,0.006089603,0.005407419,0.006049416,0.001274304,0.004360764,0.00604943,0.003023661,0.002247204,1.89E+17,119.3075195,14438640.65,8.24E-12,6.81E-06,0.452762148,1.89E-05,0.531922342,0.003730309,0.006308504
0.060557147,0.14980979,1.936211791,0.019224836,0.005927492,0.005401327,0.005914181,0.001311404,0.004279495,0.005937236,0.003074629,0.002295625,1.88E+17,118.4964679,14408166.35,8.05E-12,6.78E-06,0.455239832,1.93E-05,0.529437985,0.003730002,0.006310744
0.0615396,0.155850325,1.933994606,0.020155908,0.005761395,0.005389703,0.005774637,0.001348614,0.004194688,0.00582015,0.003123931,0.002343292,1.86E+17,117.6845028,14377386.35,7.87E-12,6.75E-06,0.457732693,1.97E-05,0.526940464,0.003729674,0.00631286
0.062522052,0.161994707,1.931755133,0.021111607,0.005592042,0.005372708,0.005631382,0.001385906,0.004106723,0.005698689,0.003171525,0.002390159,1.85E+17,116.8719112,14346306.42,7.69E-12,6.72E-06,0.460239838,2.01E-05,0.524430718,0.003729433,0.006314856
0.063504505,0.168240419,1.929493745,0.022091981,0.005420139,0.005350513,0.005485,0.00142325,0.004015971,0.005573358,0.00321737,0.002436184,1.84E+17,116.0589691,14314932.34,7.50E-12,6.69E-06,0.462760372,2.06E-05,0.521909677,0.003729371,0.006316733
0.064486957,0.174584835,1.927210807,0.023097074,0.005246365,0.005323299,0.005336053,0.00146062,0.003922797,0.005444653,0.003261431,0.002481325,1.83E+17,115.2459421,14283269.89,7.32E-12,6.66E-06,0.465293402,2.10E-05,0.519378256,0.00372954,0.006318494
0.065469409,0.181025224,1.924906678,0.024126919,0.005071371,0.005291256,0.005185084,0.001497984,0.003827555,0.005313056,0.003303676,0.002525544,1.81E+17,114.433085,14251324.88,7.14E-12,6.62E-06,0.467838036,2.15E-05,0.516837357,0.003729937,0.006320142
0.066451862,0.187558763,1.922581705,0.025181542,0.004895777,0.005254579,0.005032614,0.001535311,0.003730587,0.005179034,0.003344077,0.002568801,1.80E+17,113.6206425,14219103.12,6.97E-12,6.59E-06,0.470393379,2.19E-05,0.514287872,0.003730475,0.006321678
0.067434314,0.194182543,1.92023623,0.026260959,0.004720166,0.005213469,0.004879138,0.001572571,0.003632224,0.005043038,0.003382606,0.002611062,1.79E+17,112.8088493,14186610.42,6.79E-12,6.56E-06,0.472958538,2.24E-05,0.511730676,0.003730964,0.006323106
0.068416767,0.20089359,1.917870585,0.027365181,0.004545091,0.005168133,0.004725129,0.001609726,0.003532783,0.004905503,0.003419243,0.002652293,1.78E+17,111.9979302,14153852.6,6.62E-12,6.53E-06,0.47553262,2.29E-05,0.509166634,0.003731088,0.006324426
0.069399219,0.207688874,1.915485094,0.028494208,0.004371064,0.005118782,0.00457103,0.001646742,0.003432569,0.004766845,0.003453968,0.00269246,1.76E+17,111.1881003,14120835.49,6.45E-12,6.50E-06,0.478114729,2.34E-05,0.506596599,0.003730402,0.006325643
0.070381672,0.214565331,1.913080073,0.029648036,0.004198562,0.005065627,0.004417262,0.001683576,0.003331869,0.00462746,0.003486764,0.002731533,1.75E+17,110.3795657,14087564.9,6.28E-12,6.47E-06,0.480703963,2.39E-05,0.504021408,0.00372851,0.006326757
0.071364124,0.22151986,1.910655831,0.030826651,0.004028027,0.005008882,0.004264216,0.001720188,0.003230958,0.004487726,0.003517619,0.002769483,1.74E+17,109.5725231,14054046.67,6.11E-12,6.43E-06,0.48329942,2.45E-05,0.501441889,0.00372557,0.006327772
0.072346577,0.228549335,1.90821267,0.03203003,0.00385986,0.004948765,0.004112258,0.001756534,0.003130095,0.004347998,0.003546521,0.002806283,1.72E+17,108.7671604,14020286.6,5.95E-12,6.40E-06,0.485900198,2.50E-05,0.498858853,0.00372255,0.00632869
0.073329029,0.235650599,1.905750882,0.033258147,0.003694428,0.004885488,0.003961725,0.001792572,0.003029521,0.004208612,0.003573464,0.002841905,1.71E+17,107.9636568,13986290.52,5.78E-12,6.37E-06,0.488505395,2.56E-05,0.496273103,0.003720453,0.006329513
0.074311481,0.242820472,1.903270752,0.034510965,0.003532059,0.004819267,0.003812928,0.001828266,0.002929464,0.004069885,0.00359844,0.002876326,1.70E+17,107.1621832,13952064.21,5.62E-12,6.34E-06,0.491114108,2.61E-05,0.493685426,0.003719538,0.006330244
0.075293934,0.25005575,1.90077256,0.035788441,0.003373048,0.004750316,0.003666153,0.00186358,0.002830136,0.00393211,0.003621449,0.002909524,1.69E+17,106.3629021,13917613.49,5.47E-12,6.30E-06,0.493725435,2.67E-05,0.491096596,0.003719488,0.006330884
0.076276386,0.257353208,1.898256575,0.037090527,0.003217653,0.004678844,0.003521659,0.001898488,0.002731732,0.003795561,0.003642488,0.002941475,1.67E+17,105.5659683,13882944.13,5.31E-12,6.27E-06,0.496338475,2.73E-05,0.488507376,0.003719817,0.006331437
0.077258839,0.264709605,1.895723062,0.038417165,0.003066099,0.004605059,0.003379679,0.00193297,0.002634433,0.003660491,0.00366156,0.002972162,1.66E+17,104.7715286,13848061.9,5.16E-12,6.24E-06,0.498952324,2.79E-05,0.485918516,0.003720163,0.006331905
0.078241291,0.272121682,1.893172277,0.039768291,0.002918578,0.004529168,0.003240422,0.001967015,0.002538404,0.003527134,0.003678669,0.003001564,1.65E+17,103.9797224,13812972.55,5.01E-12,6.21E-06,0.501566081,2.86E-05,0.483330752,0.003720334,0.006332291
0.079223744,0.279586164,1.890604469,0.041143837,0.002775254,0.004451371,0.003104074,0.002000614,0.002443796,0.003395702,0.003693822,0.003029666,1.63E+17,103.1906818,13777681.84,4.87E-12,6.17E-06,0.504178844,2.92E-05,0.480744808,0.003720274,0.006332595
